# wavelength[angstrom] transmittance
 9902.8  0.0013
 9907.3  0.0015
 9911.9  0.0016
 9916.4  0.0017
 9920.9  0.0019
 9925.5  0.0019
 9930.0  0.0019
 9934.5  0.0021
 9939.1  0.0025
 9943.6  0.0031
 9948.1  0.0037
 9952.7  0.0043
 9957.2  0.0051
 9961.7  0.0060
 9966.3  0.0070
 9970.8  0.0081
 9975.4  0.0093
 9979.9  0.0111
 9984.4  0.0137
 9989.0  0.0171
 9993.5  0.0217
 9998.0  0.0278
10002.6  0.0362
10007.1  0.0479
10011.7  0.0634
10016.2  0.0834
10020.7  0.1081
10025.3  0.1378
10029.8  0.1723
10034.4  0.2113
10038.9  0.2544
10043.4  0.3010
10048.0  0.3507
10052.5  0.4037
10057.0  0.4601
10061.6  0.5200
10066.1  0.5825
10070.7  0.6450
10075.2  0.7029
10079.7  0.7510
10084.3  0.7862
10088.8  0.8064
10093.4  0.8122
10097.9  0.8069
10102.4  0.7929
10107.0  0.7707
10111.5  0.7416
10116.1  0.7073
10120.6  0.6685
10125.1  0.6254
10129.7  0.5789
10134.2  0.5296
10138.8  0.4776
10143.3  0.4228
10147.9  0.3657
10152.4  0.3075
10156.9  0.2503
10161.5  0.1964
10166.0  0.1481
10170.6  0.1077
10175.1  0.0770
10179.6  0.0555
10184.2  0.0416
10188.7  0.0327
10193.3  0.0266
10197.8  0.0223
10202.4  0.0190
10206.9  0.0167
10211.4  0.0151
10216.0  0.0137
10220.5  0.0121
10225.1  0.0103
10229.6  0.0089
10234.2  0.0079
10238.7  0.0071
10243.3  0.0063
10247.8  0.0055
10252.3  0.0046
10256.9  0.0039
10261.4  0.0034
10266.0  0.0031
10270.5  0.0028
10275.1  0.0023
10279.6  0.0019
10284.2  0.0017
10288.7  0.0015
10293.2  0.0011
10297.8  0.0006
